#    s        x        y     Ue/Vinf    Dstar     Theta      Cf       H
   0.00000  1.00000  0.00000  0.91886  0.007137  0.004329  0.001923     1.649
   0.00485  0.99519  0.00065  0.92771  0.006775  0.004175  0.002064     1.623
   0.01437  0.98578  0.00203  0.93859  0.006377  0.003991  0.002228     1.598
   0.02618  0.97410  0.00386  0.95304  0.005895  0.003764  0.002454     1.566
   0.03938  0.96107  0.00597  0.96782  0.005455  0.003546  0.002688     1.538
   0.05312  0.94751  0.00818  0.98114  0.005095  0.003359  0.002901     1.517
   0.06700  0.93382  0.01042  0.99308  0.004798  0.003199  0.003092     1.500
   0.08091  0.92009  0.01265  1.00379  0.004548  0.003059  0.003264     1.487
   0.09484  0.90634  0.01488  1.01352  0.004333  0.002936  0.003420     1.476
   0.10879  0.89257  0.01711  1.02229  0.004148  0.002826  0.003561     1.468
   0.12275  0.87879  0.01934  1.03107  0.003970  0.002720  0.003705     1.460
   0.13671  0.86501  0.02158  1.03934  0.003809  0.002621  0.003841     1.453
   0.15067  0.85123  0.02382  1.04761  0.003654  0.002526  0.003980     1.446
   0.16463  0.83745  0.02606  1.05579  0.003506  0.002434  0.004120     1.440
   0.17858  0.82368  0.02830  1.06352  0.003371  0.002348  0.004253     1.436
   0.19253  0.80991  0.03053  1.07155  0.003236  0.002262  0.004394     1.431
   0.20648  0.79614  0.03276  1.07934  0.003109  0.002180  0.004531     1.426
   0.22041  0.78238  0.03498  1.08711  0.002988  0.002100  0.004668     1.423
   0.23435  0.76863  0.03719  1.09470  0.002873  0.002023  0.004799     1.420
   0.24827  0.75488  0.03939  1.10263  0.002759  0.001946  0.004938     1.418
   0.26218  0.74114  0.04158  1.11047  0.002651  0.001872  0.005070     1.416
   0.27608  0.72741  0.04375  1.11799  0.002551  0.001801  0.005187     1.417
   0.28997  0.71369  0.04591  1.12614  0.002450  0.001728  0.005310     1.418
   0.30384  0.69998  0.04805  1.13368  0.002361  0.001660  0.005399     1.422
   0.31771  0.68628  0.05017  1.14168  0.002275  0.001592  0.005474     1.429
   0.33156  0.67259  0.05226  1.14920  0.002202  0.001528  0.005496     1.441
   0.34539  0.65891  0.05433  1.15691  0.002138  0.001465  0.005463     1.460
   0.35921  0.64524  0.05637  1.16420  0.002094  0.001406  0.005325     1.489
   0.37301  0.63159  0.05837  1.17125  0.002075  0.001350  0.005038     1.537
   0.38678  0.61796  0.06034  1.17819  0.002097  0.001298  0.004528     1.615
   0.40054  0.60434  0.06226  1.18525  0.002190  0.001250  0.003688     1.752
   0.41425  0.59075  0.06414  1.19565  0.002399  0.001194  0.002476     2.009
   0.42793  0.57720  0.06595  1.21782  0.002773  0.001096  0.001086     2.530
   0.44156  0.56368  0.06770  1.26293  0.003286  0.000910  0.000100     3.613
   0.45514  0.55020  0.06938  1.30580  0.003693  0.000738 -0.000242     5.004
   0.46868  0.53676  0.07098  1.30894  0.003800  0.000726 -0.000251     5.230
   0.48218  0.52335  0.07249  1.31189  0.003756  0.000716 -0.000256     5.248
   0.49564  0.50996  0.07390  1.31483  0.003619  0.000705 -0.000259     5.131
   0.50908  0.49658  0.07522  1.31793  0.003426  0.000695 -0.000257     4.932
   0.52249  0.48323  0.07643  1.32132  0.003206  0.000684 -0.000244     4.689
   0.53588  0.46989  0.07754  1.32509  0.002974  0.000672 -0.000211     4.427
   0.54924  0.45656  0.07854  1.32929  0.002738  0.000659 -0.000143     4.153
   0.56258  0.44325  0.07942  1.33392  0.002515  0.000646 -0.000035     3.893
   0.57591  0.42995  0.08018  1.33914  0.002309  0.000631  0.000117     3.657
   0.58920  0.41666  0.08082  1.34497  0.002125  0.000616  0.000307     3.452
   0.60248  0.40340  0.08134  1.35129  0.001965  0.000599  0.000522     3.281
   0.61573  0.39015  0.08173  1.35781  0.001828  0.000582  0.000747     3.142
   0.62896  0.37693  0.08198  1.36432  0.001711  0.000565  0.000977     3.029
   0.64215  0.36373  0.08210  1.37053  0.001612  0.000548  0.001197     2.940
   0.65533  0.35055  0.08207  1.37634  0.001528  0.000533  0.001406     2.869
   0.66850  0.33739  0.08190  1.38158  0.001457  0.000518  0.001596     2.815
   0.68166  0.32423  0.08159  1.38616  0.001399  0.000504  0.001754     2.777
   0.69483  0.31107  0.08113  1.39040  0.001345  0.000490  0.001910     2.743
   0.70800  0.29791  0.08053  1.39396  0.001302  0.000478  0.002026     2.725
   0.72118  0.28476  0.07978  1.39725  0.001262  0.000466  0.002133     2.710
   0.73436  0.27160  0.07888  1.40031  0.001225  0.000453  0.002227     2.701
   0.74755  0.25846  0.07785  1.40330  0.001189  0.000441  0.002320     2.694
   0.76073  0.24533  0.07667  1.40611  0.001156  0.000429  0.002397     2.692
   0.77390  0.23222  0.07536  1.40909  0.001121  0.000417  0.002487     2.689
   0.78706  0.21915  0.07390  1.41220  0.001086  0.000404  0.002587     2.684
   0.80018  0.20612  0.07229  1.41527  0.001051  0.000392  0.002679     2.684
   0.81327  0.19315  0.07053  1.41871  0.001013  0.000378  0.002807     2.678
   0.82632  0.18024  0.06862  1.42201  0.000978  0.000365  0.002915     2.678
   0.83932  0.16741  0.06655  1.42572  0.000939  0.000351  0.003065     2.672
   0.85226  0.15466  0.06432  1.42949  0.000899  0.000337  0.003221     2.669
   0.86513  0.14202  0.06191  1.43353  0.000858  0.000322  0.003415     2.662
   0.87791  0.12951  0.05932  1.43767  0.000815  0.000307  0.003636     2.655
   0.89058  0.11715  0.05654  1.44179  0.000773  0.000292  0.003869     2.650
   0.90309  0.10499  0.05356  1.44618  0.000728  0.000276  0.004165     2.641
   0.91545  0.09304  0.05038  1.45042  0.000684  0.000259  0.004468     2.637
   0.92768  0.08131  0.04697  1.45511  0.000635  0.000242  0.004896     2.624
   0.93968  0.06987  0.04332  1.45940  0.000587  0.000224  0.005356     2.617
   0.95121  0.05900  0.03950  1.46377  0.000535  0.000206  0.006028     2.597
   0.96210  0.04885  0.03554  1.46679  0.000484  0.000188  0.006860     2.575
   0.97262  0.03921  0.03135  1.46754  0.000436  0.000170  0.007687     2.567
   0.98254  0.03030  0.02699  1.46787  0.000395  0.000151  0.008055     2.611
   0.99070  0.02315  0.02305  1.47313  0.000339  0.000132  0.009944     2.564
   0.99712  0.01771  0.01964  1.47041  0.000282  0.000116  0.013722     2.434
   1.00255  0.01330  0.01645  1.44374  0.000246  0.000105  0.017003     2.338
   1.00741  0.00957  0.01335  1.39906  0.000242  0.000100  0.015351     2.425
   1.01146  0.00658  0.01061  1.38269  0.000255  0.000092  0.009549     2.779
   1.01460  0.00433  0.00842  1.41249  0.000216  0.000075  0.010207     2.869
   1.01705  0.00270  0.00660  1.44772  0.000153  0.000059  0.020501     2.611
   1.01905  0.00155  0.00496  1.44257  0.000114  0.000047  0.033348     2.433
   1.02079  0.00079  0.00339  1.36579  0.000091  0.000040  0.045642     2.289
   1.02243  0.00034  0.00182  1.21886  0.000083  0.000036  0.043942     2.299
   1.02400  0.00018  0.00025  1.02990  0.000074  0.000033  0.044815     2.221
   1.02549  0.00032 -0.00123  0.81843  0.000071  0.000030  0.033704     2.330
   1.02692  0.00077 -0.00259  0.55447  0.000058  0.000027  0.031325     2.193
   1.02835  0.00159 -0.00376  0.24138  0.000071  0.000032  0.010814     2.230
   1.02995  0.00282 -0.00478 -0.02327  0.000071  0.000032  0.001042     2.230
   1.03190  0.00454 -0.00570 -0.21007  0.000108  0.000048  0.006007     2.264
   1.03441  0.00688 -0.00660 -0.32932  0.000139  0.000061  0.007213     2.282
   1.03766  0.00996 -0.00764 -0.43403  0.000161  0.000071  0.008337     2.267
   1.04185  0.01398 -0.00880 -0.53325  0.000185  0.000081  0.008717     2.289
   1.04676  0.01877 -0.00992 -0.61206  0.000217  0.000093  0.008348     2.316
   1.05236  0.02428 -0.01090 -0.66837  0.000256  0.000109  0.007445     2.353
   1.05933  0.03119 -0.01181 -0.71105  0.000304  0.000128  0.006481     2.381
   1.06889  0.04070 -0.01272 -0.74881  0.000361  0.000151  0.005694     2.392
   1.08078  0.05257 -0.01351 -0.78204  0.000418  0.000175  0.005125     2.394
   1.09279  0.06457 -0.01402 -0.80407  0.000478  0.000198  0.004476     2.422
   1.10505  0.07683 -0.01431 -0.81888  0.000537  0.000220  0.003979     2.441
   1.11805  0.08983 -0.01444 -0.83034  0.000593  0.000242  0.003615     2.451
   1.13152  0.10330 -0.01445 -0.84004  0.000644  0.000263  0.003364     2.453
   1.14502  0.11680 -0.01435 -0.84763  0.000695  0.000282  0.003115     2.462
   1.15849  0.13027 -0.01415 -0.85333  0.000746  0.000302  0.002886     2.474
   1.17206  0.14383 -0.01388 -0.85779  0.000795  0.000320  0.002694     2.484
   1.18576  0.15753 -0.01355 -0.86142  0.000842  0.000338  0.002535     2.491
   1.19955  0.17131 -0.01317 -0.86471  0.000885  0.000355  0.002418     2.492
   1.21337  0.18512 -0.01276 -0.86759  0.000927  0.000371  0.002310     2.495
   1.22719  0.19894 -0.01231 -0.87003  0.000968  0.000387  0.002209     2.499
   1.24102  0.21276 -0.01184 -0.87200  0.001009  0.000403  0.002108     2.505
   1.25488  0.22662 -0.01134 -0.87381  0.001048  0.000418  0.002030     2.508
   1.26878  0.24050 -0.01083 -0.87518  0.001089  0.000433  0.001942     2.515
   1.28270  0.25441 -0.01030 -0.87640  0.001127  0.000448  0.001870     2.519
   1.29665  0.26835 -0.00976 -0.87761  0.001162  0.000461  0.001815     2.519
   1.31060  0.28230 -0.00922 -0.87862  0.001198  0.000475  0.001757     2.522
   1.32457  0.29625 -0.00868 -0.87952  0.001233  0.000489  0.001704     2.525
   1.33854  0.31021 -0.00813 -0.88055  0.001264  0.000501  0.001669     2.522
   1.35250  0.32416 -0.00759 -0.88140  0.001296  0.000514  0.001627     2.524
   1.36646  0.33811 -0.00705 -0.88207  0.001330  0.000526  0.001580     2.527
   1.38042  0.35206 -0.00651 -0.88276  0.001361  0.000538  0.001543     2.528
   1.39436  0.36599 -0.00597 -0.88341  0.001392  0.000550  0.001510     2.529
   1.40830  0.37992 -0.00544 -0.88402  0.001421  0.000562  0.001478     2.530
   1.42224  0.39384 -0.00492 -0.88453  0.001452  0.000573  0.001444     2.532
   1.43616  0.40776 -0.00440 -0.88509  0.001480  0.000584  0.001418     2.532
   1.45009  0.42168 -0.00390 -0.88555  0.001509  0.000596  0.001389     2.533
   1.46401  0.43559 -0.00340 -0.88605  0.001536  0.000606  0.001366     2.533
   1.47792  0.44950 -0.00292 -0.88650  0.001563  0.000617  0.001342     2.534
   1.49184  0.46340 -0.00244 -0.88689  0.001590  0.000627  0.001318     2.535
   1.50574  0.47730 -0.00198 -0.88742  0.001614  0.000637  0.001303     2.533
   1.51965  0.49120 -0.00153 -0.88774  0.001642  0.000648  0.001277     2.535
   1.53355  0.50509 -0.00109 -0.88816  0.001666  0.000657  0.001260     2.535
   1.54745  0.51898 -0.00067 -0.88861  0.001689  0.000667  0.001246     2.533
   1.56134  0.53287 -0.00026 -0.88897  0.001714  0.000676  0.001227     2.534
   1.57524  0.54677  0.00013 -0.88946  0.001735  0.000685  0.001216     2.531
   1.58914  0.56066  0.00051 -0.88982  0.001759  0.000695  0.001199     2.532
   1.60303  0.57454  0.00088 -0.89024  0.001781  0.000704  0.001186     2.531
   1.61692  0.58843  0.00123 -0.89068  0.001802  0.000713  0.001174     2.530
   1.63080  0.60231  0.00156 -0.89104  0.001825  0.000721  0.001159     2.530
   1.64468  0.61619  0.00187 -0.89140  0.001848  0.000730  0.001146     2.530
   1.65856  0.63006  0.00217 -0.89174  0.001870  0.000739  0.001132     2.531
   1.67244  0.64393  0.00245 -0.89221  0.001888  0.000747  0.001125     2.528
   1.68631  0.65781  0.00271 -0.89257  0.001909  0.000755  0.001113     2.528
   1.70018  0.67168  0.00295 -0.89305  0.001927  0.000763  0.001107     2.525
   1.71405  0.68554  0.00318 -0.89345  0.001947  0.000771  0.001097     2.524
   1.72791  0.69940  0.00338 -0.89393  0.001964  0.000779  0.001091     2.522
   1.74176  0.71325  0.00356 -0.89427  0.001985  0.000787  0.001079     2.523
   1.75562  0.72710  0.00372 -0.89483  0.002000  0.000794  0.001076     2.519
   1.76947  0.74096  0.00385 -0.89537  0.002015  0.000801  0.001072     2.516
   1.78332  0.75481  0.00396 -0.89574  0.002035  0.000809  0.001061     2.517
   1.79717  0.76866  0.00405 -0.89637  0.002048  0.000815  0.001061     2.512
   1.81101  0.78250  0.00412 -0.89688  0.002064  0.000822  0.001055     2.510
   1.82485  0.79633  0.00416 -0.89735  0.002081  0.000829  0.001048     2.509
   1.83867  0.81015  0.00417 -0.89802  0.002092  0.000836  0.001049     2.504
   1.85248  0.82396  0.00415 -0.89866  0.002105  0.000842  0.001047     2.500
   1.86628  0.83777  0.00410 -0.89929  0.002118  0.000848  0.001045     2.497
   1.88008  0.85157  0.00402 -0.90005  0.002128  0.000854  0.001047     2.492
   1.89387  0.86536  0.00391 -0.90088  0.002136  0.000859  0.001051     2.486
   1.90764  0.87913  0.00376 -0.90180  0.002142  0.000864  0.001057     2.479
   1.92140  0.89288  0.00357 -0.90278  0.002148  0.000869  0.001063     2.472
   1.93513  0.90662  0.00334 -0.90396  0.002148  0.000873  0.001076     2.461
   1.94884  0.92032  0.00306 -0.90504  0.002153  0.000877  0.001082     2.455
   1.96251  0.93398  0.00273 -0.90660  0.002146  0.000880  0.001105     2.440
   1.97610  0.94757  0.00235 -0.90831  0.002137  0.000881  0.001129     2.424
   1.98954  0.96100  0.00191 -0.91029  0.002123  0.000882  0.001160     2.406
   2.00250  0.97395  0.00141 -0.91226  0.002111  0.000883  0.001187     2.391
   2.01421  0.98565  0.00087 -0.91474  0.002086  0.000881  0.001232     2.368
   2.02373  0.99516  0.00032 -0.91987  0.001997  0.000867  0.001377     2.303
   2.02859  1.00000  0.00000 -0.91886  0.002040  0.000875  0.001311     2.331
   2.02859  1.00010 -0.00001  0.91886  0.009177  0.005204  0.000000     1.764
   2.03344  1.00493 -0.00047  0.92838  0.008530  0.005007  0.000000     1.703
   2.03916  1.01063 -0.00096  0.93313  0.008194  0.004914  0.000000     1.667
   2.04592  1.01737 -0.00149  0.93742  0.007892  0.004832  0.000000     1.633
   2.05389  1.02531 -0.00208  0.94143  0.007611  0.004759  0.000000     1.599
   2.06329  1.03469 -0.00273  0.94528  0.007341  0.004689  0.000000     1.565
   2.07438  1.04577 -0.00343  0.94904  0.007078  0.004624  0.000000     1.531
   2.08747  1.05883 -0.00420  0.95271  0.006822  0.004562  0.000000     1.495
   2.10292  1.07426 -0.00502  0.95630  0.006570  0.004502  0.000000     1.459
   2.12114  1.09246 -0.00590  0.95981  0.006323  0.004446  0.000000     1.422
   2.14265  1.11394 -0.00684  0.96324  0.006083  0.004392  0.000000     1.385
   2.16802  1.13930 -0.00780  0.96657  0.005850  0.004342  0.000000     1.347
   2.19796  1.16922 -0.00878  0.96980  0.005625  0.004294  0.000000     1.310
   2.23328  1.20453 -0.00975  0.97291  0.005412  0.004249  0.000000     1.274
   2.27495  1.24619 -0.01066  0.97589  0.005212  0.004206  0.000000     1.239
   2.32413  1.29536 -0.01146  0.97871  0.005026  0.004168  0.000000     1.206
   2.38215  1.35338 -0.01208  0.98137  0.004857  0.004132  0.000000     1.176
   2.45061  1.42184 -0.01243  0.98385  0.004705  0.004099  0.000000     1.148
   2.53139  1.50262 -0.01240  0.98613  0.004572  0.004069  0.000000     1.124
   2.62670  1.59792 -0.01183  0.98819  0.004457  0.004043  0.000000     1.102
   2.73915  1.71037 -0.01056  0.99006  0.004360  0.004019  0.000000     1.085
   2.87184  1.84304 -0.00837  0.99170  0.004279  0.003999  0.000000     1.070
   3.02840  1.99957 -0.00500  0.99330  0.004210  0.003979  0.000000     1.058
